Oral commisure (L) x,Oral commisure (L) y,Oral commisure (R) x,Oral commisure (R) y,Iris (M) x,Iris (M) y,Iris (L) x,Iris (L) y,Dental show (Top) x,Dental show (Top) y,Dental show (Bottom) x,Dental show (Bottom) y
1126.95980299 591.822549179 1054.89504651 589.186033698 1062.3651737 491.195541655 1044.34898458 491.195541655 1093.56394023 594.898483907 1093.56394023 594.898483907
1127.01184365 590.893108439 1054.56259533 588.201665552 1061.86794031 490.59566535 1044.0165334 490.650592756 1093.17656164 594.023970573 1093.17656164 594.023970573
1127.06388431 589.963667699 1054.23014415 587.217297407 1061.37070691 489.995789045 1043.68408223 490.105643857 1092.78918306 593.149457239 1092.78918306 593.149457239
1127.11592498 589.03422696 1053.89769297 586.232929261 1060.87347352 489.395912741 1043.35163105 489.560694958 1092.40180448 592.274943905 1092.40180448 592.274943905
1127.16796564 588.10478622 1053.56524179 585.248561115 1060.37624012 488.796036436 1043.01917987 489.015746059 1092.01442589 591.400430571 1092.01442589 591.400430571
1127.2200063 587.17534548 1053.23279062 584.26419297 1059.87900672 488.196160131 1042.68672869 488.47079716 1091.62704731 590.525917237 1091.62704731 590.525917237
1127.27204696 586.24590474 1052.90033944 583.279824824 1059.38177333 487.596283826 1042.35427751 487.925848262 1091.23966872 589.651403903 1091.23966872 589.651403903
1127.32408763 585.316464 1052.56788826 582.295456678 1058.88453993 486.996407522 1042.02182634 487.380899363 1090.85229014 588.776890569 1090.85229014 588.776890569
1127.37612829 584.38702326 1052.23543708 581.311088533 1058.38730654 486.396531217 1041.68937516 486.835950464 1090.46491156 587.902377235 1090.46491156 587.902377235
1127.44089852 584.563650747 1051.9880407 581.390288222 1058.37453219 486.750119396 1041.80385345 487.10404078 1090.57342488 588.170467551 1090.57342488 588.170467551
1127.50566875 584.740278233 1051.74064431 581.469487912 1058.36175785 487.103707574 1041.91833173 487.372131096 1090.6819382 588.438557867 1090.6819382 588.438557867
1127.57043897 584.916905719 1051.49324792 581.548687601 1058.3489835 487.457295753 1042.03281002 487.640221412 1090.79045152 588.706648183 1090.79045152 588.706648183
1127.6352092 585.093533206 1051.24585154 581.627887291 1058.33620916 487.810883931 1042.14728831 487.908311728 1090.89896484 588.974738499 1090.89896484 588.974738499
1127.69997943 585.270160692 1050.99845515 581.70708698 1058.32343481 488.164472109 1042.26176659 488.176402044 1091.00747816 589.242828815 1091.00747816 589.242828815
1127.76474966 585.446788178 1050.75105876 581.78628667 1058.31066047 488.518060288 1042.37624488 488.44449236 1091.11599148 589.510919131 1091.11599148 589.510919131
1127.82951988 585.623415665 1050.50366238 581.865486359 1058.29788612 488.871648466 1042.49072317 488.712582676 1091.2245048 589.779009447 1091.2245048 589.779009447
1127.89429011 585.800043151 1050.25626599 581.944686049 1058.28511178 489.225236645 1042.60520146 488.980672992 1091.33301812 590.047099763 1091.33301812 590.047099763
1127.95906034 585.976670637 1050.0088696 582.023885738 1058.27233743 489.578824823 1042.71967974 489.248763308 1091.44153144 590.315190079 1091.44153144 590.315190079
1128.02383057 586.153298124 1049.76147322 582.103085428 1058.25956308 489.932413002 1042.83415803 489.516853624 1091.55004476 590.583280395 1091.55004476 590.583280395
1128.08860079 586.32992561 1049.51407683 582.182285117 1058.24678874 490.28600118 1042.94863632 489.78494394 1091.65855808 590.851370711 1091.65855808 590.851370711
1128.15337102 586.506553096 1049.26668044 582.261484807 1058.23401439 490.639589359 1043.0631146 490.053034256 1091.7670714 591.119461027 1091.7670714 591.119461027
1128.21814125 586.683180583 1049.01928406 582.340684496 1058.22124005 490.993177537 1043.17759289 490.321124572 1091.87558472 591.387551343 1091.87558472 591.387551343
1128.28291148 586.859808069 1048.77188767 582.419884186 1058.2084657 491.346765716 1043.29207118 490.589214887 1091.98409804 591.655641659 1091.98409804 591.655641659
1128.3476817 587.036435555 1048.52449128 582.499083875 1058.19569136 491.700353894 1043.40654947 490.857305203 1092.09261136 591.923731975 1092.09261136 591.923731975
1128.41245193 587.213063041 1048.2770949 582.578283565 1058.18291701 492.053942073 1043.52102775 491.125395519 1092.20112468 592.191822291 1092.20112468 592.191822291
1128.47722216 587.389690528 1048.02969851 582.657483254 1058.17014267 492.407530251 1043.63550604 491.393485835 1092.309638 592.459912607 1092.309638 592.459912607
1128.05410493 587.502115133 1048.02909978 582.600900457 1058.38080319 492.350947454 1043.71941102 491.336903038 1091.80201706 592.487833511 1091.80201706 592.487833511
1127.63098769 587.614539739 1048.02850106 582.54431766 1058.59146372 492.294364657 1043.80331599 491.280320241 1091.29439613 592.515754415 1091.29439613 592.515754415
1127.20787046 587.726964345 1048.02790233 582.487734863 1058.80212425 492.23778186 1043.88722097 491.223737444 1090.78677519 592.543675319 1090.78677519 592.543675319
1126.78475323 587.83938895 1048.0273036 582.431152066 1059.01278477 492.181199063 1043.97112594 491.167154647 1090.27915426 592.571596224 1090.27915426 592.571596224
1126.36163599 587.951813556 1048.02670488 582.374569269 1059.2234453 492.124616266 1044.05503092 491.11057185 1089.77153333 592.599517128 1089.77153333 592.599517128
1125.93851876 588.064238161 1048.02610615 582.317986472 1059.43410583 492.068033469 1044.13893589 491.053989053 1089.26391239 592.627438032 1089.26391239 592.627438032
1125.51540153 588.176662767 1048.02550742 582.261403675 1059.64476635 492.011450672 1044.22284086 490.997406256 1088.75629146 592.655358937 1088.75629146 592.655358937
1125.0922843 588.289087373 1048.0249087 582.204820878 1059.85542688 491.954867875 1044.30674584 490.940823459 1088.24867052 592.683279841 1088.24867052 592.683279841
1125.3594193 588.300792847 1048.00083094 582.278929086 1059.86775072 491.90677073 1044.33207025 491.004531212 1088.20639197 592.492176433 1088.24019345 592.796389757
1125.6265543 588.312498322 1047.97675319 582.353037294 1059.88007456 491.858673586 1044.35739466 491.068238964 1088.16411342 592.301073024 1088.23171638 592.909499674
1125.8936893 588.324203797 1047.95267544 582.427145502 1059.89239841 491.810576441 1044.38271907 491.131946717 1088.12183487 592.109969616 1088.22323931 593.02260959
1126.16082431 588.335909272 1047.92859769 582.50125371 1059.90472225 491.762479297 1044.40804348 491.195654469 1088.07955632 591.918866208 1088.21476225 593.135719506
1126.42795931 588.347614747 1047.90451993 582.575361918 1059.91704609 491.714382152 1044.4333679 491.259362222 1088.03727777 591.727762799 1088.20628518 593.248829423
1126.69509431 588.359320221 1047.88044218 582.649470127 1059.92936993 491.666285007 1044.45869231 491.323069974 1087.99499922 591.536659391 1088.19780811 593.361939339
1126.96222931 588.371025696 1047.85636443 582.723578335 1059.94169377 491.618187863 1044.48401672 491.386777727 1087.95272067 591.345555983 1088.18933104 593.475049256
1127.22936432 588.382731171 1047.83228668 582.797686543 1059.95401761 491.570090718 1044.50934113 491.45048548 1087.91044212 591.154452574 1088.18085397 593.588159172
1127.49649932 588.394436646 1047.80820892 582.871794751 1059.96634146 491.521993574 1044.53466554 491.514193232 1087.86816357 590.963349166 1088.1723769 593.701269088
1127.76363432 588.406142121 1047.78413117 582.945902959 1059.9786653 491.473896429 1044.55998995 491.577900985 1087.82588502 590.772245757 1088.16389983 593.814379005
1128.03076932 588.417847595 1047.76005342 583.020011167 1059.99098914 491.425799285 1044.58531436 491.641608737 1087.78360647 590.581142349 1088.15542276 593.927488921
1128.29790433 588.42955307 1047.73597566 583.094119375 1060.00331298 491.37770214 1044.61063877 491.70531649 1087.74132792 590.390038941 1088.14694569 594.040598838
1128.56503933 588.441258545 1047.71189791 583.168227583 1060.01563682 491.329604995 1044.63596318 491.769024242 1087.69904937 590.198935532 1088.13846862 594.153708754
1128.99984172 588.472010848 1047.66333913 583.198979887 1060.14284574 491.448241148 1044.7631721 491.84371847 1088.00202599 590.185745911 1088.39750331 594.755706078
1129.4346441 588.502763152 1047.61478034 583.22973219 1060.27005465 491.566877301 1044.89038101 491.918412698 1088.3050026 590.17255629 1088.656538 595.357703402
1129.86944649 588.533515455 1047.56622156 583.260484493 1060.39726357 491.685513454 1045.01758993 491.993106926 1088.60797921 590.159366669 1088.91557269 595.959700727
1130.30424888 588.564267759 1047.51766278 583.291236797 1060.52447248 491.804149606 1045.14479884 492.067801154 1088.91095583 590.146177047 1089.17460738 596.561698051
1130.73905127 588.595020062 1047.46910399 583.3219891 1060.6516814 491.922785759 1045.27200776 492.142495383 1089.21393244 590.132987426 1089.43364206 597.163695375
1131.17385365 588.625772365 1047.42054521 583.352741403 1060.77889031 492.041421912 1045.39921667 492.217189611 1089.51690905 590.119797805 1089.69267675 597.7656927
1131.60865604 588.656524669 1047.37198642 583.383493707 1060.90609923 492.160058065 1045.52642559 492.291883839 1089.81988567 590.106608183 1089.95171144 598.367690024
1132.04345843 588.687276972 1047.32342764 583.41424601 1061.03330814 492.278694217 1045.6536345 492.366578067 1090.12286228 590.093418562 1090.21074613 598.969687348
1132.47826082 588.718029276 1047.27486886 583.444998314 1061.16051706 492.39733037 1045.78084342 492.441272295 1090.42583889 590.080228941 1090.46978082 599.571684672
1132.9130632 588.748781579 1047.22631007 583.475750617 1061.28772597 492.515966523 1045.90805233 492.515966523 1090.72881551 590.067039319 1090.72881551 600.173681997
1132.72795657 588.474944117 1046.72733255 583.515784046 1061.03984516 492.493225773 1045.66017152 492.367677417 1090.60648305 589.793201857 1090.60648305 600.088167069
1132.54284994 588.201106655 1046.22835503 583.555817474 1060.79196435 492.470485024 1045.41229071 492.219388311 1090.4841506 589.519364395 1090.4841506 600.002652141
1132.35774331 587.927269193 1045.7293775 583.595850903 1060.54408354 492.447744274 1045.1644099 492.071099206 1090.36181815 589.245526933 1090.36181815 599.917137214
1132.17263668 587.653431731 1045.23039998 583.635884331 1060.29620273 492.425003525 1044.91652909 491.9228101 1090.23948569 588.971689471 1090.23948569 599.831622286
1131.98753004 587.379594269 1044.73142246 583.67591776 1060.04832192 492.402262775 1044.66864828 491.774520994 1090.11715324 588.697852009 1090.11715324 599.746107358
1131.80242341 587.105756807 1044.23244494 583.715951189 1059.80044111 492.379522026 1044.42076747 491.626231888 1089.99482078 588.424014547 1089.99482078 599.660592431
1131.61731678 586.831919345 1043.73346741 583.755984617 1059.5525603 492.356781276 1044.17288666 491.477942783 1089.87248833 588.150177085 1089.87248833 599.575077503
1131.37681797 586.53074676 1043.4929686 583.070320191 1059.64162592 492.000681285 1044.15209747 491.286625009 1089.68691692 587.794077094 1089.63198952 599.1091227
1131.13631916 586.229574174 1043.25246979 582.384655764 1059.73069155 491.644581294 1044.13130828 491.095307235 1089.50134552 587.437977103 1089.39149071 598.643167897
1130.89582034 585.928401589 1043.01197098 581.698991338 1059.81975717 491.288481303 1044.1105191 490.903989462 1089.31577411 587.081877112 1089.1509919 598.177213094
1130.65532153 585.627229003 1042.77147217 581.013326912 1059.90882279 490.932381311 1044.08972991 490.712671688 1089.13020271 586.725777121 1088.91049308 597.711258291
1130.41482272 585.326056418 1042.53097335 580.327662485 1059.99788842 490.57628132 1044.06894072 490.521353914 1088.9446313 586.369677129 1088.66999427 597.245303488
1130.17432391 585.024883833 1042.29047454 579.641998059 1060.08695404 490.220181329 1044.04815153 490.330036141 1088.7590599 586.013577138 1088.42949546 596.779348685
1129.9338251 584.723711247 1042.04997573 578.956333633 1060.17601966 489.864081338 1044.02736234 490.138718367 1088.57348849 585.657477147 1088.18899665 596.313393883
1129.69332629 584.422538662 1041.80947692 578.270669206 1060.26508529 489.507981346 1044.00657315 489.947400593 1088.38791708 585.301377156 1087.94849784 595.84743908
1129.98374663 584.265685539 1042.23510319 578.18817934 1060.50662349 489.427571572 1044.23589082 489.771046616 1088.58889351 585.135943657 1088.19341619 595.675245285
1130.27416698 584.108832416 1042.66072945 578.105689475 1060.74816169 489.347161797 1044.46520849 489.594692639 1088.78986994 584.970510158 1088.43833454 595.50305149
1130.56458732 583.951979293 1043.08635572 578.023199609 1060.9896999 489.266752022 1044.69452616 489.418338662 1088.99084636 584.805076659 1088.68325289 595.330857695
1130.85500766 583.79512617 1043.51198199 577.940709743 1061.2312381 489.186342247 1044.92384383 489.241984684 1089.19182279 584.63964316 1088.92817124 595.1586639
1131.14542801 583.638273047 1043.93760825 577.858219877 1061.4727763 489.105932472 1045.1531615 489.065630707 1089.39279922 584.474209661 1089.1730896 594.986470105
1131.43584835 583.481419924 1044.36323452 577.775730011 1061.71431451 489.025522698 1045.38247916 488.88927673 1089.59377565 584.308776162 1089.41800795 594.81427631
1131.7262687 583.324566801 1044.78886079 577.693240145 1061.95585271 488.945112923 1045.61179683 488.712922753 1089.79475207 584.143342664 1089.6629263 594.642082515
1132.01668904 583.167713678 1045.21448705 577.610750279 1062.19739092 488.864703148 1045.8411145 488.536568776 1089.9957285 583.977909165 1089.90784465 594.46988872
1132.30710939 583.010860555 1045.64011332 577.528260413 1062.43892912 488.784293373 1046.07043217 488.360214798 1090.19670493 583.812475666 1090.152763 594.297694925
1132.59752973 582.854007431 1046.06573959 577.445770547 1062.68046732 488.703883599 1046.29974984 488.183860821 1090.39768135 583.647042167 1090.39768135 594.12550113
1132.63611715 582.738858524 1045.84840151 577.601033484 1062.4122413 488.856174977 1045.92343337 488.284892811 1090.18740073 583.85802183 1090.37572326 594.471686715
1132.67470457 582.623709617 1045.63106343 577.756296421 1062.14401528 489.008466355 1045.5471169 488.385924802 1089.9771201 584.069001493 1090.35376517 594.8178723
1132.71329199 582.50856071 1045.41372536 577.911559358 1061.87578926 489.160757733 1045.17080043 488.486956792 1089.76683948 584.279981156 1090.33180708 595.164057885
1132.75187941 582.393411802 1045.19638728 578.066822295 1061.60756324 489.313049111 1044.79448396 488.587988782 1089.55655886 584.490960819 1090.30984899 595.510243471
1132.79046683 582.278262895 1044.97904921 578.222085232 1061.33933722 489.46534049 1044.4181675 488.689020772 1089.34627823 584.701940482 1090.2878909 595.856429056
1132.82905425 582.163113988 1044.76171113 578.377348169 1061.07111121 489.617631868 1044.04185103 488.790052762 1089.13599761 584.912920145 1090.26593281 596.202614641
1132.86764167 582.047965081 1044.54437305 578.532611106 1060.80288519 489.769923246 1043.66553456 488.891084752 1088.92571698 585.123899808 1090.24397472 596.548800226
1132.00843775 582.285709019 1044.89357207 578.330935798 1060.05353609 489.678102749 1043.24574989 489.018973879 1088.72564194 585.251788935 1089.82419006 596.676689353
1131.14923384 582.523452958 1045.24277109 578.129260489 1059.30418698 489.586282253 1042.82596523 489.146863006 1088.5255669 585.379678062 1089.40440539 596.80457848
1130.29002993 582.761196896 1045.5919701 577.927585181 1058.55483788 489.494461756 1042.40618056 489.274752133 1088.32549186 585.507567189 1088.98462073 596.932467607
1129.43082602 582.998940835 1045.94116912 577.725909873 1057.80548878 489.40264126 1041.9863959 489.40264126 1088.12541681 585.635456316 1088.56483606 597.060356734
